# Region type : patch heater_to_fins
# Faces  :    56
# Area   :    1.000000e-04
# Time        	areaAverage(T)
0             	2.969000e+02
1             	2.969000e+02
2             	2.991620e+02
3             	3.014035e+02
4             	3.036432e+02
5             	3.058737e+02
6             	3.080905e+02
7             	3.102920e+02
8             	3.124768e+02
9             	3.146444e+02
10            	3.167946e+02
11            	3.189276e+02
12            	3.210433e+02
13            	3.231420e+02
14            	3.252238e+02
15            	3.272889e+02
16            	3.293375e+02
17            	3.313699e+02
18            	3.333862e+02
19            	3.353868e+02
20            	3.373719e+02
21            	3.393416e+02
22            	3.412962e+02
23            	3.432357e+02
24            	3.451604e+02
25            	3.470703e+02
26            	3.489656e+02
27            	3.508466e+02
28            	3.527133e+02
29            	3.545660e+02
30            	3.564044e+02
31            	3.582282e+02
32            	3.600367e+02
33            	3.618292e+02
34            	3.636049e+02
35            	3.653633e+02
36            	3.671041e+02
37            	3.688275e+02
38            	3.705331e+02
39            	3.722211e+02
40            	3.738913e+02
41            	3.755437e+02
42            	3.771786e+02
43            	3.787960e+02
44            	3.803961e+02
45            	3.819789e+02
46            	3.835444e+02
47            	3.850927e+02
48            	3.866241e+02
49            	3.881386e+02
50            	3.896367e+02
51            	3.911183e+02
52            	3.925837e+02
53            	3.940331e+02
54            	3.954668e+02
55            	3.968847e+02
56            	3.982872e+02
57            	3.996743e+02
58            	4.010464e+02
59            	4.024034e+02
60            	4.037457e+02
61            	4.050733e+02
62            	4.063866e+02
63            	4.076855e+02
64            	4.089703e+02
65            	4.102413e+02
66            	4.114984e+02
67            	4.127419e+02
68            	4.139720e+02
69            	4.151887e+02
70            	4.163922e+02
71            	4.175827e+02
72            	4.187603e+02
73            	4.199251e+02
74            	4.210772e+02
75            	4.222168e+02
76            	4.233440e+02
77            	4.244588e+02
78            	4.255615e+02
79            	4.266521e+02
80            	4.277307e+02
81            	4.287974e+02
82            	4.298524e+02
83            	4.308958e+02
84            	4.319277e+02
85            	4.329484e+02
86            	4.339578e+02
87            	4.349562e+02
88            	4.359437e+02
89            	4.369204e+02
90            	4.378864e+02
91            	4.388419e+02
92            	4.397870e+02
93            	4.407217e+02
94            	4.416463e+02
95            	4.425608e+02
96            	4.434653e+02
97            	4.443599e+02
98            	4.452448e+02
99            	4.461199e+02
100           	4.469855e+02
101           	4.478415e+02
102           	4.486881e+02
103           	4.495254e+02
104           	4.503533e+02
105           	4.511721e+02
106           	4.519818e+02
107           	4.527826e+02
108           	4.535745e+02
109           	4.543576e+02
110           	4.551321e+02
111           	4.558979e+02
112           	4.566553e+02
113           	4.574042e+02
114           	4.581447e+02
115           	4.588770e+02
116           	4.596011e+02
117           	4.603172e+02
118           	4.610252e+02
119           	4.617252e+02
120           	4.624175e+02
121           	4.631019e+02
122           	4.637787e+02
123           	4.644478e+02
124           	4.651094e+02
125           	4.657636e+02
126           	4.664104e+02
127           	4.670500e+02
128           	4.676824e+02
129           	4.683076e+02
130           	4.689258e+02
131           	4.695370e+02
132           	4.701413e+02
133           	4.707388e+02
134           	4.713295e+02
135           	4.719134e+02
136           	4.724908e+02
137           	4.730615e+02
138           	4.736258e+02
139           	4.741836e+02
140           	4.747351e+02
141           	4.752802e+02
142           	4.758191e+02
143           	4.763518e+02
144           	4.768783e+02
145           	4.773987e+02
146           	4.779130e+02
147           	4.784213e+02
148           	4.789237e+02
149           	4.794201e+02
150           	4.799107e+02
151           	4.803954e+02
152           	4.808744e+02
153           	4.813477e+02
154           	4.818154e+02
155           	4.822774e+02
156           	4.827340e+02
157           	4.831850e+02
158           	4.836307e+02
159           	4.840710e+02
160           	4.845060e+02
161           	4.849357e+02
162           	4.853603e+02
163           	4.857798e+02
164           	4.861942e+02
165           	4.866036e+02
166           	4.870081e+02
167           	4.874077e+02
168           	4.878026e+02
169           	4.881927e+02
170           	4.885782e+02
171           	4.889590e+02
172           	4.893354e+02
173           	4.897072e+02
174           	4.900746e+02
175           	4.904376e+02
176           	4.907963e+02
177           	4.911506e+02
178           	4.915007e+02
179           	4.918465e+02
180           	4.921882e+02
181           	4.925257e+02
182           	4.928592e+02
183           	4.931887e+02
184           	4.935141e+02
185           	4.938357e+02
186           	4.941534e+02
187           	4.944672e+02
188           	4.947772e+02
189           	4.950835e+02
190           	4.953860e+02
191           	4.956848e+02
192           	4.959799e+02
193           	4.962714e+02
194           	4.965594e+02
195           	4.968439e+02
196           	4.971249e+02
197           	4.974026e+02
198           	4.976769e+02
199           	4.979481e+02
200           	4.982160e+02
201           	4.984807e+02
202           	4.987423e+02
203           	4.990008e+02
204           	4.992563e+02
205           	4.995088e+02
206           	4.997583e+02
207           	5.000048e+02
208           	5.002485e+02
209           	5.004892e+02
210           	5.007272e+02
211           	5.009624e+02
212           	5.011948e+02
213           	5.014246e+02
214           	5.016517e+02
215           	5.018761e+02
216           	5.020978e+02
217           	5.023170e+02
218           	5.025335e+02
219           	5.027474e+02
220           	5.029588e+02
221           	5.031677e+02
222           	5.033742e+02
223           	5.035783e+02
224           	5.037800e+02
225           	5.039793e+02
226           	5.041762e+02
227           	5.043708e+02
228           	5.045631e+02
229           	5.047530e+02
230           	5.049407e+02
231           	5.051261e+02
232           	5.053092e+02
233           	5.054901e+02
234           	5.056689e+02
235           	5.058454e+02
236           	5.060197e+02
237           	5.061919e+02
238           	5.063619e+02
239           	5.065297e+02
240           	5.066955e+02
241           	5.068592e+02
242           	5.070209e+02
243           	5.071806e+02
244           	5.073383e+02
245           	5.074939e+02
246           	5.076476e+02
247           	5.077994e+02
248           	5.079492e+02
249           	5.080971e+02
250           	5.082432e+02
251           	5.083874e+02
252           	5.085298e+02
253           	5.086704e+02
254           	5.088093e+02
255           	5.089464e+02
256           	5.090818e+02
257           	5.092155e+02
258           	5.093475e+02
259           	5.094778e+02
260           	5.096065e+02
261           	5.097336e+02
262           	5.098591e+02
263           	5.099830e+02
264           	5.101055e+02
265           	5.102264e+02
266           	5.103458e+02
267           	5.104637e+02
268           	5.105803e+02
269           	5.106954e+02
270           	5.108092e+02
271           	5.109216e+02
272           	5.110326e+02
273           	5.111424e+02
274           	5.112508e+02
275           	5.113581e+02
276           	5.114641e+02
277           	5.115688e+02
278           	5.116724e+02
279           	5.117749e+02
280           	5.118761e+02
281           	5.119763e+02
282           	5.120753e+02
283           	5.121733e+02
284           	5.122703e+02
285           	5.123661e+02
286           	5.124609e+02
287           	5.125546e+02
288           	5.126472e+02
289           	5.127388e+02
290           	5.128294e+02
291           	5.129190e+02
292           	5.130076e+02
293           	5.130952e+02
294           	5.131819e+02
295           	5.132677e+02
296           	5.133525e+02
297           	5.134364e+02
298           	5.135194e+02
299           	5.136015e+02
300           	5.136826e+02
301           	5.137629e+02
302           	5.138422e+02
303           	5.139207e+02
304           	5.139982e+02
305           	5.140749e+02
306           	5.141507e+02
307           	5.142258e+02
308           	5.143000e+02
309           	5.143735e+02
310           	5.144462e+02
311           	5.145181e+02
312           	5.145894e+02
313           	5.146599e+02
314           	5.147296e+02
315           	5.147987e+02
316           	5.148670e+02
317           	5.149347e+02
318           	5.150016e+02
319           	5.150677e+02
320           	5.151332e+02
321           	5.151979e+02
322           	5.152619e+02
323           	5.153252e+02
324           	5.153878e+02
325           	5.154498e+02
326           	5.155111e+02
327           	5.155718e+02
328           	5.156319e+02
329           	5.156913e+02
330           	5.157501e+02
331           	5.158084e+02
332           	5.158660e+02
333           	5.159231e+02
334           	5.159797e+02
335           	5.160356e+02
336           	5.160910e+02
337           	5.161458e+02
338           	5.162001e+02
339           	5.162538e+02
340           	5.163069e+02
341           	5.163595e+02
342           	5.164116e+02
343           	5.164631e+02
344           	5.165141e+02
345           	5.165645e+02
346           	5.166145e+02
347           	5.166639e+02
348           	5.167129e+02
349           	5.167614e+02
350           	5.168094e+02
351           	5.168570e+02
352           	5.169041e+02
353           	5.169507e+02
354           	5.169969e+02
355           	5.170427e+02
356           	5.170880e+02
357           	5.171329e+02
358           	5.171774e+02
359           	5.172214e+02
360           	5.172650e+02
361           	5.173082e+02
362           	5.173510e+02
363           	5.173933e+02
364           	5.174353e+02
365           	5.174768e+02
366           	5.175179e+02
367           	5.175586e+02
368           	5.175990e+02
369           	5.176389e+02
370           	5.176785e+02
371           	5.177177e+02
372           	5.177566e+02
373           	5.177951e+02
374           	5.178332e+02
375           	5.178711e+02
376           	5.179086e+02
377           	5.179458e+02
378           	5.179828e+02
379           	5.180194e+02
380           	5.180557e+02
381           	5.180918e+02
382           	5.181275e+02
383           	5.181630e+02
384           	5.181982e+02
385           	5.182332e+02
386           	5.182678e+02
387           	5.183022e+02
388           	5.183364e+02
389           	5.183703e+02
390           	5.184039e+02
391           	5.184373e+02
392           	5.184704e+02
393           	5.185033e+02
394           	5.185360e+02
395           	5.185684e+02
396           	5.186005e+02
397           	5.186325e+02
398           	5.186641e+02
399           	5.186955e+02
400           	5.187267e+02
401           	5.187576e+02
402           	5.187882e+02
403           	5.188186e+02
404           	5.188488e+02
405           	5.188787e+02
406           	5.189083e+02
407           	5.189376e+02
408           	5.189668e+02
409           	5.189956e+02
410           	5.190243e+02
411           	5.190526e+02
412           	5.190808e+02
413           	5.191086e+02
414           	5.191363e+02
415           	5.191637e+02
416           	5.191909e+02
417           	5.192179e+02
418           	5.192447e+02
419           	5.192712e+02
420           	5.192975e+02
421           	5.193237e+02
422           	5.193495e+02
423           	5.193752e+02
424           	5.194007e+02
425           	5.194259e+02
426           	5.194509e+02
427           	5.194757e+02
428           	5.195002e+02
429           	5.195245e+02
430           	5.195486e+02
431           	5.195725e+02
432           	5.195961e+02
433           	5.196196e+02
434           	5.196428e+02
435           	5.196657e+02
436           	5.196885e+02
437           	5.197111e+02
438           	5.197334e+02
439           	5.197555e+02
440           	5.197775e+02
441           	5.197992e+02
442           	5.198207e+02
443           	5.198420e+02
444           	5.198631e+02
445           	5.198840e+02
446           	5.199047e+02
447           	5.199251e+02
448           	5.199454e+02
449           	5.199654e+02
450           	5.199853e+02
451           	5.200049e+02
452           	5.200243e+02
453           	5.200435e+02
454           	5.200625e+02
455           	5.200813e+02
456           	5.200999e+02
457           	5.201182e+02
458           	5.201364e+02
459           	5.201543e+02
460           	5.201721e+02
461           	5.201897e+02
462           	5.202070e+02
463           	5.202242e+02
464           	5.202411e+02
465           	5.202579e+02
466           	5.202744e+02
467           	5.202907e+02
468           	5.203069e+02
469           	5.203228e+02
470           	5.203386e+02
471           	5.203541e+02
472           	5.203694e+02
473           	5.203846e+02
474           	5.203995e+02
475           	5.204143e+02
476           	5.204288e+02
477           	5.204432e+02
478           	5.204573e+02
479           	5.204713e+02
480           	5.204851e+02
481           	5.204987e+02
482           	5.205120e+02
483           	5.205253e+02
484           	5.205383e+02
485           	5.205511e+02
486           	5.205638e+02
487           	5.205763e+02
488           	5.205886e+02
489           	5.206007e+02
490           	5.206126e+02
491           	5.206244e+02
492           	5.206360e+02
493           	5.206475e+02
494           	5.206587e+02
495           	5.206698e+02
496           	5.206808e+02
497           	5.206916e+02
498           	5.207022e+02
499           	5.207127e+02
500           	5.207230e+02
501           	5.207332e+02
502           	5.207432e+02
503           	5.207531e+02
504           	5.207628e+02
505           	5.207725e+02
506           	5.207819e+02
507           	5.207913e+02
508           	5.208004e+02
509           	5.208095e+02
510           	5.208184e+02
511           	5.208272e+02
512           	5.208359e+02
513           	5.208444e+02
514           	5.208528e+02
515           	5.208611e+02
516           	5.208693e+02
517           	5.208773e+02
518           	5.208853e+02
519           	5.208931e+02
520           	5.209008e+02
521           	5.209084e+02
522           	5.209159e+02
523           	5.209232e+02
524           	5.209305e+02
525           	5.209377e+02
526           	5.209448e+02
527           	5.209517e+02
528           	5.209586e+02
529           	5.209654e+02
530           	5.209721e+02
531           	5.209787e+02
532           	5.209852e+02
533           	5.209917e+02
534           	5.209980e+02
535           	5.210043e+02
536           	5.210104e+02
537           	5.210165e+02
538           	5.210226e+02
539           	5.210285e+02
540           	5.210344e+02
541           	5.210402e+02
542           	5.210459e+02
543           	5.210516e+02
544           	5.210572e+02
545           	5.210627e+02
546           	5.210681e+02
547           	5.210735e+02
548           	5.210789e+02
549           	5.210841e+02
550           	5.210894e+02
551           	5.210945e+02
552           	5.210996e+02
553           	5.211046e+02
554           	5.211096e+02
555           	5.211145e+02
556           	5.211194e+02
557           	5.211242e+02
558           	5.211290e+02
559           	5.211337e+02
560           	5.211384e+02
561           	5.211430e+02
562           	5.211475e+02
563           	5.211520e+02
564           	5.211565e+02
565           	5.211609e+02
566           	5.211653e+02
567           	5.211696e+02
568           	5.211739e+02
569           	5.211782e+02
570           	5.211824e+02
571           	5.211866e+02
572           	5.211907e+02
573           	5.211948e+02
574           	5.211988e+02
575           	5.212028e+02
576           	5.212067e+02
577           	5.212106e+02
578           	5.212145e+02
579           	5.212183e+02
580           	5.212221e+02
581           	5.212258e+02
582           	5.212295e+02
583           	5.212332e+02
584           	5.212368e+02
585           	5.212404e+02
586           	5.212439e+02
587           	5.212474e+02
588           	5.212509e+02
589           	5.212543e+02
590           	5.212577e+02
591           	5.212611e+02
592           	5.212644e+02
593           	5.212676e+02
594           	5.212708e+02
595           	5.212740e+02
596           	5.212772e+02
597           	5.212803e+02
598           	5.212833e+02
599           	5.212863e+02
600           	5.212893e+02
601           	5.212922e+02
602           	5.212951e+02
603           	5.212979e+02
604           	5.213007e+02
605           	5.213035e+02
606           	5.213062e+02
607           	5.213088e+02
608           	5.213114e+02
609           	5.213140e+02
610           	5.213165e+02
611           	5.213189e+02
612           	5.213213e+02
613           	5.213237e+02
614           	5.213260e+02
615           	5.213283e+02
616           	5.213305e+02
617           	5.213326e+02
618           	5.213347e+02
619           	5.213368e+02
620           	5.213388e+02
621           	5.213407e+02
622           	5.213426e+02
623           	5.213445e+02
624           	5.213463e+02
625           	5.213481e+02
626           	5.213498e+02
627           	5.213515e+02
628           	5.213531e+02
629           	5.213547e+02
630           	5.213563e+02
631           	5.213578e+02
632           	5.213593e+02
633           	5.213607e+02
634           	5.213621e+02
635           	5.213635e+02
636           	5.213649e+02
637           	5.213662e+02
638           	5.213674e+02
639           	5.213687e+02
640           	5.213699e+02
641           	5.213711e+02
642           	5.213722e+02
643           	5.213734e+02
644           	5.213745e+02
645           	5.213755e+02
646           	5.213766e+02
647           	5.213776e+02
648           	5.213786e+02
649           	5.213796e+02
650           	5.213806e+02
651           	5.213815e+02
652           	5.213825e+02
653           	5.213834e+02
654           	5.213843e+02
655           	5.213852e+02
656           	5.213861e+02
657           	5.213870e+02
658           	5.213879e+02
659           	5.213887e+02
660           	5.213896e+02
661           	5.213905e+02
662           	5.213913e+02
663           	5.213921e+02
664           	5.213930e+02
665           	5.213938e+02
666           	5.213947e+02
667           	5.213955e+02
668           	5.213963e+02
669           	5.213972e+02
670           	5.213980e+02
671           	5.213989e+02
672           	5.213997e+02
673           	5.214006e+02
674           	5.214015e+02
675           	5.214023e+02
676           	5.214032e+02
677           	5.214041e+02
678           	5.214050e+02
679           	5.214059e+02
680           	5.214068e+02
681           	5.214077e+02
682           	5.214086e+02
683           	5.214095e+02
684           	5.214105e+02
685           	5.214115e+02
686           	5.214124e+02
687           	5.214134e+02
688           	5.214144e+02
689           	5.214154e+02
690           	5.214164e+02
691           	5.214174e+02
692           	5.214184e+02
693           	5.214195e+02
694           	5.214205e+02
695           	5.214215e+02
696           	5.214226e+02
697           	5.214237e+02
698           	5.214247e+02
699           	5.214258e+02
700           	5.214269e+02
701           	5.214280e+02
702           	5.214290e+02
703           	5.214301e+02
704           	5.214311e+02
705           	5.214322e+02
706           	5.214333e+02
707           	5.214343e+02
708           	5.214354e+02
709           	5.214365e+02
