# Region      : all 
# Cells       : 602
# Volume      : 1.000000e-06
# Time        	volAverage(T)
0             	2.969000e+02
1             	3.085814e+02
2             	3.110116e+02
3             	3.135245e+02
4             	3.159116e+02
5             	3.182311e+02
6             	3.205011e+02
7             	3.227336e+02
8             	3.249360e+02
9             	3.271126e+02
10            	3.292666e+02
11            	3.313999e+02
12            	3.335140e+02
13            	3.356097e+02
14            	3.376878e+02
15            	3.397487e+02
16            	3.417928e+02
17            	3.438206e+02
18            	3.458322e+02
19            	3.478281e+02
20            	3.498085e+02
21            	3.517736e+02
22            	3.537235e+02
23            	3.556585e+02
24            	3.575786e+02
25            	3.594840e+02
26            	3.613748e+02
27            	3.632513e+02
28            	3.651137e+02
29            	3.669620e+02
30            	3.687960e+02
31            	3.706152e+02
32            	3.724189e+02
33            	3.742063e+02
34            	3.759767e+02
35            	3.777296e+02
36            	3.794650e+02
37            	3.811829e+02
38            	3.828830e+02
39            	3.845654e+02
40            	3.862300e+02
41            	3.878770e+02
42            	3.895064e+02
43            	3.911184e+02
44            	3.927131e+02
45            	3.942905e+02
46            	3.958507e+02
47            	3.973937e+02
48            	3.989198e+02
49            	4.004292e+02
50            	4.019221e+02
51            	4.033987e+02
52            	4.048591e+02
53            	4.063036e+02
54            	4.077324e+02
55            	4.091455e+02
56            	4.105432e+02
57            	4.119257e+02
58            	4.132930e+02
59            	4.146455e+02
60            	4.159832e+02
61            	4.173064e+02
62            	4.186152e+02
63            	4.199097e+02
64            	4.211903e+02
65            	4.224569e+02
66            	4.237098e+02
67            	4.249491e+02
68            	4.261751e+02
69            	4.273877e+02
70            	4.285872e+02
71            	4.297736e+02
72            	4.309472e+02
73            	4.321082e+02
74            	4.332564e+02
75            	4.343921e+02
76            	4.355155e+02
77            	4.366265e+02
78            	4.377255e+02
79            	4.388124e+02
80            	4.398873e+02
81            	4.409503e+02
82            	4.420017e+02
83            	4.430416e+02
84            	4.440700e+02
85            	4.450872e+02
86            	4.460932e+02
87            	4.470882e+02
88            	4.480724e+02
89            	4.490457e+02
90            	4.500085e+02
91            	4.509607e+02
92            	4.519026e+02
93            	4.528342e+02
94            	4.537556e+02
95            	4.546670e+02
96            	4.555685e+02
97            	4.564601e+02
98            	4.573419e+02
99            	4.582141e+02
100           	4.590767e+02
101           	4.599298e+02
102           	4.607735e+02
103           	4.616079e+02
104           	4.624330e+02
105           	4.632490e+02
106           	4.640559e+02
107           	4.648539e+02
108           	4.656431e+02
109           	4.664235e+02
110           	4.671953e+02
111           	4.679586e+02
112           	4.687133e+02
113           	4.694596e+02
114           	4.701976e+02
115           	4.709273e+02
116           	4.716489e+02
117           	4.723625e+02
118           	4.730680e+02
119           	4.737657e+02
120           	4.744555e+02
121           	4.751375e+02
122           	4.758119e+02
123           	4.764787e+02
124           	4.771380e+02
125           	4.777899e+02
126           	4.784345e+02
127           	4.790718e+02
128           	4.797020e+02
129           	4.803251e+02
130           	4.809411e+02
131           	4.815502e+02
132           	4.821524e+02
133           	4.827477e+02
134           	4.833363e+02
135           	4.839183e+02
136           	4.844936e+02
137           	4.850623e+02
138           	4.856246e+02
139           	4.861804e+02
140           	4.867299e+02
141           	4.872731e+02
142           	4.878101e+02
143           	4.883408e+02
144           	4.888654e+02
145           	4.893840e+02
146           	4.898964e+02
147           	4.904029e+02
148           	4.909035e+02
149           	4.913981e+02
150           	4.918868e+02
151           	4.923698e+02
152           	4.928470e+02
153           	4.933185e+02
154           	4.937845e+02
155           	4.942448e+02
156           	4.946997e+02
157           	4.951491e+02
158           	4.955931e+02
159           	4.960317e+02
160           	4.964651e+02
161           	4.968932e+02
162           	4.973162e+02
163           	4.977341e+02
164           	4.981470e+02
165           	4.985549e+02
166           	4.989579e+02
167           	4.993560e+02
168           	4.997494e+02
169           	5.001380e+02
170           	5.005221e+02
171           	5.009015e+02
172           	5.012765e+02
173           	5.016470e+02
174           	5.020130e+02
175           	5.023747e+02
176           	5.027320e+02
177           	5.030850e+02
178           	5.034338e+02
179           	5.037783e+02
180           	5.041187e+02
181           	5.044550e+02
182           	5.047872e+02
183           	5.051154e+02
184           	5.054397e+02
185           	5.057600e+02
186           	5.060765e+02
187           	5.063892e+02
188           	5.066980e+02
189           	5.070031e+02
190           	5.073044e+02
191           	5.076021e+02
192           	5.078961e+02
193           	5.081865e+02
194           	5.084734e+02
195           	5.087568e+02
196           	5.090368e+02
197           	5.093135e+02
198           	5.095868e+02
199           	5.098569e+02
200           	5.101238e+02
201           	5.103876e+02
202           	5.106482e+02
203           	5.109058e+02
204           	5.111604e+02
205           	5.114120e+02
206           	5.116605e+02
207           	5.119062e+02
208           	5.121489e+02
209           	5.123888e+02
210           	5.126259e+02
211           	5.128602e+02
212           	5.130919e+02
213           	5.133208e+02
214           	5.135470e+02
215           	5.137706e+02
216           	5.139916e+02
217           	5.142099e+02
218           	5.144256e+02
219           	5.146387e+02
220           	5.148494e+02
221           	5.150575e+02
222           	5.152633e+02
223           	5.154666e+02
224           	5.156675e+02
225           	5.158661e+02
226           	5.160623e+02
227           	5.162562e+02
228           	5.164478e+02
229           	5.166370e+02
230           	5.168240e+02
231           	5.170087e+02
232           	5.171911e+02
233           	5.173714e+02
234           	5.175494e+02
235           	5.177252e+02
236           	5.178989e+02
237           	5.180704e+02
238           	5.182397e+02
239           	5.184070e+02
240           	5.185721e+02
241           	5.187352e+02
242           	5.188963e+02
243           	5.190553e+02
244           	5.192124e+02
245           	5.193674e+02
246           	5.195205e+02
247           	5.196717e+02
248           	5.198209e+02
249           	5.199682e+02
250           	5.201137e+02
251           	5.202573e+02
252           	5.203992e+02
253           	5.205393e+02
254           	5.206776e+02
255           	5.208142e+02
256           	5.209491e+02
257           	5.210823e+02
258           	5.212137e+02
259           	5.213435e+02
260           	5.214717e+02
261           	5.215983e+02
262           	5.217233e+02
263           	5.218468e+02
264           	5.219687e+02
265           	5.220892e+02
266           	5.222082e+02
267           	5.223257e+02
268           	5.224418e+02
269           	5.225565e+02
270           	5.226698e+02
271           	5.227818e+02
272           	5.228925e+02
273           	5.230018e+02
274           	5.231099e+02
275           	5.232167e+02
276           	5.233223e+02
277           	5.234268e+02
278           	5.235300e+02
279           	5.236321e+02
280           	5.237330e+02
281           	5.238328e+02
282           	5.239315e+02
283           	5.240292e+02
284           	5.241258e+02
285           	5.242213e+02
286           	5.243157e+02
287           	5.244091e+02
288           	5.245014e+02
289           	5.245927e+02
290           	5.246830e+02
291           	5.247723e+02
292           	5.248606e+02
293           	5.249479e+02
294           	5.250343e+02
295           	5.251198e+02
296           	5.252043e+02
297           	5.252879e+02
298           	5.253706e+02
299           	5.254524e+02
300           	5.255333e+02
301           	5.256133e+02
302           	5.256924e+02
303           	5.257705e+02
304           	5.258478e+02
305           	5.259242e+02
306           	5.259998e+02
307           	5.260746e+02
308           	5.261486e+02
309           	5.262218e+02
310           	5.262943e+02
311           	5.263661e+02
312           	5.264371e+02
313           	5.265073e+02
314           	5.265769e+02
315           	5.266457e+02
316           	5.267139e+02
317           	5.267813e+02
318           	5.268479e+02
319           	5.269139e+02
320           	5.269791e+02
321           	5.270436e+02
322           	5.271074e+02
323           	5.271705e+02
324           	5.272329e+02
325           	5.272947e+02
326           	5.273558e+02
327           	5.274163e+02
328           	5.274761e+02
329           	5.275354e+02
330           	5.275940e+02
331           	5.276521e+02
332           	5.277096e+02
333           	5.277665e+02
334           	5.278229e+02
335           	5.278787e+02
336           	5.279339e+02
337           	5.279885e+02
338           	5.280426e+02
339           	5.280961e+02
340           	5.281491e+02
341           	5.282015e+02
342           	5.282534e+02
343           	5.283048e+02
344           	5.283556e+02
345           	5.284059e+02
346           	5.284557e+02
347           	5.285050e+02
348           	5.285538e+02
349           	5.286022e+02
350           	5.286500e+02
351           	5.286974e+02
352           	5.287444e+02
353           	5.287909e+02
354           	5.288370e+02
355           	5.288826e+02
356           	5.289278e+02
357           	5.289726e+02
358           	5.290169e+02
359           	5.290608e+02
360           	5.291043e+02
361           	5.291474e+02
362           	5.291900e+02
363           	5.292322e+02
364           	5.292740e+02
365           	5.293154e+02
366           	5.293564e+02
367           	5.293970e+02
368           	5.294373e+02
369           	5.294771e+02
370           	5.295166e+02
371           	5.295557e+02
372           	5.295944e+02
373           	5.296328e+02
374           	5.296709e+02
375           	5.297086e+02
376           	5.297461e+02
377           	5.297832e+02
378           	5.298200e+02
379           	5.298566e+02
380           	5.298928e+02
381           	5.299288e+02
382           	5.299645e+02
383           	5.299999e+02
384           	5.300350e+02
385           	5.300698e+02
386           	5.301044e+02
387           	5.301387e+02
388           	5.301728e+02
389           	5.302066e+02
390           	5.302402e+02
391           	5.302735e+02
392           	5.303066e+02
393           	5.303394e+02
394           	5.303720e+02
395           	5.304043e+02
396           	5.304364e+02
397           	5.304682e+02
398           	5.304998e+02
399           	5.305311e+02
400           	5.305622e+02
401           	5.305930e+02
402           	5.306236e+02
403           	5.306539e+02
404           	5.306840e+02
405           	5.307138e+02
406           	5.307433e+02
407           	5.307726e+02
408           	5.308017e+02
409           	5.308305e+02
410           	5.308590e+02
411           	5.308873e+02
412           	5.309154e+02
413           	5.309432e+02
414           	5.309708e+02
415           	5.309981e+02
416           	5.310253e+02
417           	5.310522e+02
418           	5.310789e+02
419           	5.311053e+02
420           	5.311316e+02
421           	5.311576e+02
422           	5.311835e+02
423           	5.312091e+02
424           	5.312344e+02
425           	5.312596e+02
426           	5.312845e+02
427           	5.313092e+02
428           	5.313337e+02
429           	5.313580e+02
430           	5.313820e+02
431           	5.314058e+02
432           	5.314294e+02
433           	5.314527e+02
434           	5.314759e+02
435           	5.314988e+02
436           	5.315215e+02
437           	5.315440e+02
438           	5.315663e+02
439           	5.315883e+02
440           	5.316102e+02
441           	5.316318e+02
442           	5.316533e+02
443           	5.316745e+02
444           	5.316955e+02
445           	5.317164e+02
446           	5.317370e+02
447           	5.317574e+02
448           	5.317776e+02
449           	5.317976e+02
450           	5.318173e+02
451           	5.318369e+02
452           	5.318563e+02
453           	5.318754e+02
454           	5.318943e+02
455           	5.319130e+02
456           	5.319315e+02
457           	5.319498e+02
458           	5.319679e+02
459           	5.319858e+02
460           	5.320035e+02
461           	5.320210e+02
462           	5.320383e+02
463           	5.320554e+02
464           	5.320723e+02
465           	5.320890e+02
466           	5.321055e+02
467           	5.321217e+02
468           	5.321378e+02
469           	5.321537e+02
470           	5.321694e+02
471           	5.321848e+02
472           	5.322001e+02
473           	5.322152e+02
474           	5.322301e+02
475           	5.322448e+02
476           	5.322593e+02
477           	5.322736e+02
478           	5.322877e+02
479           	5.323016e+02
480           	5.323153e+02
481           	5.323288e+02
482           	5.323421e+02
483           	5.323553e+02
484           	5.323683e+02
485           	5.323810e+02
486           	5.323936e+02
487           	5.324061e+02
488           	5.324183e+02
489           	5.324304e+02
490           	5.324423e+02
491           	5.324540e+02
492           	5.324656e+02
493           	5.324770e+02
494           	5.324882e+02
495           	5.324992e+02
496           	5.325101e+02
497           	5.325209e+02
498           	5.325314e+02
499           	5.325419e+02
500           	5.325521e+02
501           	5.325623e+02
502           	5.325723e+02
503           	5.325821e+02
504           	5.325918e+02
505           	5.326014e+02
506           	5.326108e+02
507           	5.326201e+02
508           	5.326293e+02
509           	5.326383e+02
510           	5.326472e+02
511           	5.326559e+02
512           	5.326645e+02
513           	5.326730e+02
514           	5.326814e+02
515           	5.326896e+02
516           	5.326978e+02
517           	5.327058e+02
518           	5.327137e+02
519           	5.327215e+02
520           	5.327292e+02
521           	5.327367e+02
522           	5.327442e+02
523           	5.327515e+02
524           	5.327587e+02
525           	5.327659e+02
526           	5.327729e+02
527           	5.327799e+02
528           	5.327867e+02
529           	5.327935e+02
530           	5.328002e+02
531           	5.328067e+02
532           	5.328132e+02
533           	5.328196e+02
534           	5.328260e+02
535           	5.328322e+02
536           	5.328384e+02
537           	5.328444e+02
538           	5.328504e+02
539           	5.328564e+02
540           	5.328622e+02
541           	5.328680e+02
542           	5.328737e+02
543           	5.328793e+02
544           	5.328849e+02
545           	5.328904e+02
546           	5.328958e+02
547           	5.329012e+02
548           	5.329065e+02
549           	5.329118e+02
550           	5.329170e+02
551           	5.329221e+02
552           	5.329272e+02
553           	5.329322e+02
554           	5.329371e+02
555           	5.329420e+02
556           	5.329469e+02
557           	5.329517e+02
558           	5.329564e+02
559           	5.329611e+02
560           	5.329658e+02
561           	5.329704e+02
562           	5.329749e+02
563           	5.329794e+02
564           	5.329839e+02
565           	5.329883e+02
566           	5.329927e+02
567           	5.329970e+02
568           	5.330013e+02
569           	5.330055e+02
570           	5.330097e+02
571           	5.330138e+02
572           	5.330179e+02
573           	5.330220e+02
574           	5.330260e+02
575           	5.330300e+02
576           	5.330339e+02
577           	5.330378e+02
578           	5.330417e+02
579           	5.330455e+02
580           	5.330492e+02
581           	5.330530e+02
582           	5.330567e+02
583           	5.330603e+02
584           	5.330639e+02
585           	5.330675e+02
586           	5.330710e+02
587           	5.330745e+02
588           	5.330780e+02
589           	5.330814e+02
590           	5.330848e+02
591           	5.330881e+02
592           	5.330914e+02
593           	5.330946e+02
594           	5.330978e+02
595           	5.331010e+02
596           	5.331041e+02
597           	5.331072e+02
598           	5.331103e+02
599           	5.331133e+02
600           	5.331162e+02
601           	5.331191e+02
602           	5.331220e+02
603           	5.331248e+02
604           	5.331276e+02
605           	5.331303e+02
606           	5.331330e+02
607           	5.331356e+02
608           	5.331382e+02
609           	5.331408e+02
610           	5.331432e+02
611           	5.331457e+02
612           	5.331481e+02
613           	5.331504e+02
614           	5.331527e+02
615           	5.331549e+02
616           	5.331571e+02
617           	5.331593e+02
618           	5.331614e+02
619           	5.331634e+02
620           	5.331654e+02
621           	5.331673e+02
622           	5.331692e+02
623           	5.331710e+02
624           	5.331728e+02
625           	5.331746e+02
626           	5.331763e+02
627           	5.331780e+02
628           	5.331796e+02
629           	5.331812e+02
630           	5.331827e+02
631           	5.331843e+02
632           	5.331857e+02
633           	5.331872e+02
634           	5.331886e+02
635           	5.331899e+02
636           	5.331913e+02
637           	5.331926e+02
638           	5.331938e+02
639           	5.331951e+02
640           	5.331963e+02
641           	5.331974e+02
642           	5.331986e+02
643           	5.331997e+02
644           	5.332008e+02
645           	5.332019e+02
646           	5.332029e+02
647           	5.332039e+02
648           	5.332049e+02
649           	5.332059e+02
650           	5.332069e+02
651           	5.332078e+02
652           	5.332088e+02
653           	5.332097e+02
654           	5.332106e+02
655           	5.332115e+02
656           	5.332124e+02
657           	5.332133e+02
658           	5.332142e+02
659           	5.332150e+02
660           	5.332159e+02
661           	5.332167e+02
662           	5.332176e+02
663           	5.332184e+02
664           	5.332192e+02
665           	5.332201e+02
666           	5.332209e+02
667           	5.332218e+02
668           	5.332226e+02
669           	5.332234e+02
670           	5.332243e+02
671           	5.332251e+02
672           	5.332260e+02
673           	5.332269e+02
674           	5.332277e+02
675           	5.332286e+02
676           	5.332295e+02
677           	5.332304e+02
678           	5.332313e+02
679           	5.332322e+02
680           	5.332331e+02
681           	5.332340e+02
682           	5.332349e+02
683           	5.332358e+02
684           	5.332368e+02
685           	5.332378e+02
686           	5.332387e+02
687           	5.332397e+02
688           	5.332407e+02
689           	5.332417e+02
690           	5.332427e+02
691           	5.332437e+02
692           	5.332447e+02
693           	5.332458e+02
694           	5.332468e+02
695           	5.332479e+02
696           	5.332489e+02
697           	5.332500e+02
698           	5.332511e+02
699           	5.332521e+02
700           	5.332532e+02
701           	5.332543e+02
702           	5.332553e+02
703           	5.332564e+02
704           	5.332575e+02
705           	5.332585e+02
706           	5.332596e+02
707           	5.332607e+02
708           	5.332617e+02
709           	5.332628e+02
