# Region      : all 
# Cells       : 3143
# Volume      : 4.102922e-06
# Time        	volAverage(T)
0             	2.969000e+02
1             	2.969000e+02
2             	2.990832e+02
3             	3.012353e+02
4             	3.033877e+02
5             	3.055220e+02
6             	3.076427e+02
7             	3.097469e+02
8             	3.118346e+02
9             	3.139056e+02
10            	3.159603e+02
11            	3.179988e+02
12            	3.200213e+02
13            	3.220280e+02
14            	3.240189e+02
15            	3.259945e+02
16            	3.279549e+02
17            	3.299005e+02
18            	3.318315e+02
19            	3.337481e+02
20            	3.356506e+02
21            	3.375390e+02
22            	3.394132e+02
23            	3.412733e+02
24            	3.431193e+02
25            	3.449511e+02
26            	3.467692e+02
27            	3.485739e+02
28            	3.503651e+02
29            	3.521430e+02
30            	3.539068e+02
31            	3.556545e+02
32            	3.573848e+02
33            	3.590959e+02
34            	3.607867e+02
35            	3.624573e+02
36            	3.641081e+02
37            	3.657396e+02
38            	3.673519e+02
39            	3.689451e+02
40            	3.705197e+02
41            	3.720760e+02
42            	3.736143e+02
43            	3.751351e+02
44            	3.766386e+02
45            	3.781247e+02
46            	3.795935e+02
47            	3.810453e+02
48            	3.824804e+02
49            	3.838995e+02
50            	3.853025e+02
51            	3.866899e+02
52            	3.880619e+02
53            	3.894186e+02
54            	3.907604e+02
55            	3.920873e+02
56            	3.933996e+02
57            	3.946976e+02
58            	3.959812e+02
59            	3.972508e+02
60            	3.985066e+02
61            	3.997487e+02
62            	4.009773e+02
63            	4.021926e+02
64            	4.033946e+02
65            	4.045836e+02
66            	4.057598e+02
67            	4.069231e+02
68            	4.080740e+02
69            	4.092123e+02
70            	4.103380e+02
71            	4.114515e+02
72            	4.125530e+02
73            	4.136426e+02
74            	4.147200e+02
75            	4.157855e+02
76            	4.168392e+02
77            	4.178814e+02
78            	4.189121e+02
79            	4.199313e+02
80            	4.209391e+02
81            	4.219358e+02
82            	4.229214e+02
83            	4.238962e+02
84            	4.248603e+02
85            	4.258137e+02
86            	4.267568e+02
87            	4.276895e+02
88            	4.286120e+02
89            	4.295244e+02
90            	4.304269e+02
91            	4.313195e+02
92            	4.322024e+02
93            	4.330756e+02
94            	4.339393e+02
95            	4.347936e+02
96            	4.356386e+02
97            	4.364743e+02
98            	4.373008e+02
99            	4.381182e+02
100           	4.389265e+02
101           	4.397258e+02
102           	4.405162e+02
103           	4.412978e+02
104           	4.420706e+02
105           	4.428348e+02
106           	4.435906e+02
107           	4.443379e+02
108           	4.450770e+02
109           	4.458079e+02
110           	4.465307e+02
111           	4.472454e+02
112           	4.479521e+02
113           	4.486508e+02
114           	4.493416e+02
115           	4.500246e+02
116           	4.507000e+02
117           	4.513677e+02
118           	4.520279e+02
119           	4.526807e+02
120           	4.533260e+02
121           	4.539641e+02
122           	4.545949e+02
123           	4.552186e+02
124           	4.558353e+02
125           	4.564451e+02
126           	4.570480e+02
127           	4.576441e+02
128           	4.582336e+02
129           	4.588164e+02
130           	4.593926e+02
131           	4.599622e+02
132           	4.605254e+02
133           	4.610823e+02
134           	4.616328e+02
135           	4.621770e+02
136           	4.627151e+02
137           	4.632470e+02
138           	4.637728e+02
139           	4.642927e+02
140           	4.648066e+02
141           	4.653145e+02
142           	4.658165e+02
143           	4.663127e+02
144           	4.668030e+02
145           	4.672876e+02
146           	4.677664e+02
147           	4.682395e+02
148           	4.687071e+02
149           	4.691690e+02
150           	4.696253e+02
151           	4.700762e+02
152           	4.705218e+02
153           	4.709620e+02
154           	4.713970e+02
155           	4.718267e+02
156           	4.722512e+02
157           	4.726706e+02
158           	4.730849e+02
159           	4.734942e+02
160           	4.738985e+02
161           	4.742980e+02
162           	4.746927e+02
163           	4.750826e+02
164           	4.754678e+02
165           	4.758484e+02
166           	4.762244e+02
167           	4.765959e+02
168           	4.769630e+02
169           	4.773258e+02
170           	4.776842e+02
171           	4.780385e+02
172           	4.783885e+02
173           	4.787343e+02
174           	4.790760e+02
175           	4.794136e+02
176           	4.797471e+02
177           	4.800765e+02
178           	4.804019e+02
179           	4.807234e+02
180           	4.810410e+02
181           	4.813547e+02
182           	4.816646e+02
183           	4.819708e+02
184           	4.822733e+02
185           	4.825721e+02
186           	4.828673e+02
187           	4.831588e+02
188           	4.834469e+02
189           	4.837313e+02
190           	4.840122e+02
191           	4.842897e+02
192           	4.845637e+02
193           	4.848344e+02
194           	4.851018e+02
195           	4.853661e+02
196           	4.856272e+02
197           	4.858852e+02
198           	4.861402e+02
199           	4.863923e+02
200           	4.866414e+02
201           	4.868875e+02
202           	4.871308e+02
203           	4.873713e+02
204           	4.876090e+02
205           	4.878438e+02
206           	4.880758e+02
207           	4.883051e+02
208           	4.885317e+02
209           	4.887557e+02
210           	4.889771e+02
211           	4.891960e+02
212           	4.894123e+02
213           	4.896262e+02
214           	4.898375e+02
215           	4.900464e+02
216           	4.902528e+02
217           	4.904566e+02
218           	4.906580e+02
219           	4.908571e+02
220           	4.910537e+02
221           	4.912482e+02
222           	4.914404e+02
223           	4.916304e+02
224           	4.918182e+02
225           	4.920037e+02
226           	4.921870e+02
227           	4.923681e+02
228           	4.925470e+02
229           	4.927237e+02
230           	4.928982e+02
231           	4.930706e+02
232           	4.932409e+02
233           	4.934091e+02
234           	4.935752e+02
235           	4.937392e+02
236           	4.939012e+02
237           	4.940611e+02
238           	4.942189e+02
239           	4.943748e+02
240           	4.945288e+02
241           	4.946808e+02
242           	4.948310e+02
243           	4.949793e+02
244           	4.951257e+02
245           	4.952702e+02
246           	4.954129e+02
247           	4.955538e+02
248           	4.956929e+02
249           	4.958301e+02
250           	4.959657e+02
251           	4.960997e+02
252           	4.962320e+02
253           	4.963627e+02
254           	4.964917e+02
255           	4.966192e+02
256           	4.967451e+02
257           	4.968693e+02
258           	4.969920e+02
259           	4.971132e+02
260           	4.972328e+02
261           	4.973509e+02
262           	4.974676e+02
263           	4.975829e+02
264           	4.976967e+02
265           	4.978092e+02
266           	4.979203e+02
267           	4.980301e+02
268           	4.981386e+02
269           	4.982458e+02
270           	4.983517e+02
271           	4.984564e+02
272           	4.985599e+02
273           	4.986622e+02
274           	4.987633e+02
275           	4.988634e+02
276           	4.989624e+02
277           	4.990603e+02
278           	4.991571e+02
279           	4.992528e+02
280           	4.993475e+02
281           	4.994412e+02
282           	4.995339e+02
283           	4.996257e+02
284           	4.997165e+02
285           	4.998063e+02
286           	4.998950e+02
287           	4.999827e+02
288           	5.000694e+02
289           	5.001551e+02
290           	5.002399e+02
291           	5.003238e+02
292           	5.004067e+02
293           	5.004887e+02
294           	5.005699e+02
295           	5.006502e+02
296           	5.007296e+02
297           	5.008081e+02
298           	5.008858e+02
299           	5.009626e+02
300           	5.010386e+02
301           	5.011136e+02
302           	5.011878e+02
303           	5.012611e+02
304           	5.013336e+02
305           	5.014053e+02
306           	5.014763e+02
307           	5.015466e+02
308           	5.016162e+02
309           	5.016850e+02
310           	5.017533e+02
311           	5.018208e+02
312           	5.018877e+02
313           	5.019539e+02
314           	5.020194e+02
315           	5.020843e+02
316           	5.021484e+02
317           	5.022118e+02
318           	5.022745e+02
319           	5.023365e+02
320           	5.023977e+02
321           	5.024583e+02
322           	5.025181e+02
323           	5.025774e+02
324           	5.026360e+02
325           	5.026940e+02
326           	5.027514e+02
327           	5.028082e+02
328           	5.028644e+02
329           	5.029201e+02
330           	5.029752e+02
331           	5.030298e+02
332           	5.030839e+02
333           	5.031375e+02
334           	5.031905e+02
335           	5.032430e+02
336           	5.032950e+02
337           	5.033464e+02
338           	5.033973e+02
339           	5.034477e+02
340           	5.034976e+02
341           	5.035469e+02
342           	5.035958e+02
343           	5.036441e+02
344           	5.036920e+02
345           	5.037393e+02
346           	5.037863e+02
347           	5.038327e+02
348           	5.038787e+02
349           	5.039243e+02
350           	5.039694e+02
351           	5.040141e+02
352           	5.040584e+02
353           	5.041022e+02
354           	5.041457e+02
355           	5.041887e+02
356           	5.042314e+02
357           	5.042737e+02
358           	5.043155e+02
359           	5.043569e+02
360           	5.043979e+02
361           	5.044385e+02
362           	5.044787e+02
363           	5.045184e+02
364           	5.045578e+02
365           	5.045968e+02
366           	5.046355e+02
367           	5.046738e+02
368           	5.047117e+02
369           	5.047493e+02
370           	5.047865e+02
371           	5.048234e+02
372           	5.048600e+02
373           	5.048962e+02
374           	5.049322e+02
375           	5.049679e+02
376           	5.050033e+02
377           	5.050384e+02
378           	5.050732e+02
379           	5.051078e+02
380           	5.051421e+02
381           	5.051761e+02
382           	5.052099e+02
383           	5.052434e+02
384           	5.052766e+02
385           	5.053095e+02
386           	5.053422e+02
387           	5.053747e+02
388           	5.054069e+02
389           	5.054389e+02
390           	5.054706e+02
391           	5.055021e+02
392           	5.055334e+02
393           	5.055644e+02
394           	5.055952e+02
395           	5.056257e+02
396           	5.056561e+02
397           	5.056861e+02
398           	5.057160e+02
399           	5.057455e+02
400           	5.057748e+02
401           	5.058039e+02
402           	5.058326e+02
403           	5.058612e+02
404           	5.058895e+02
405           	5.059175e+02
406           	5.059453e+02
407           	5.059728e+02
408           	5.060001e+02
409           	5.060271e+02
410           	5.060539e+02
411           	5.060805e+02
412           	5.061068e+02
413           	5.061329e+02
414           	5.061588e+02
415           	5.061845e+02
416           	5.062100e+02
417           	5.062353e+02
418           	5.062603e+02
419           	5.062852e+02
420           	5.063098e+02
421           	5.063342e+02
422           	5.063585e+02
423           	5.063825e+02
424           	5.064062e+02
425           	5.064298e+02
426           	5.064532e+02
427           	5.064763e+02
428           	5.064992e+02
429           	5.065219e+02
430           	5.065443e+02
431           	5.065666e+02
432           	5.065886e+02
433           	5.066105e+02
434           	5.066321e+02
435           	5.066535e+02
436           	5.066748e+02
437           	5.066958e+02
438           	5.067166e+02
439           	5.067372e+02
440           	5.067577e+02
441           	5.067779e+02
442           	5.067979e+02
443           	5.068178e+02
444           	5.068374e+02
445           	5.068568e+02
446           	5.068761e+02
447           	5.068951e+02
448           	5.069139e+02
449           	5.069325e+02
450           	5.069509e+02
451           	5.069691e+02
452           	5.069871e+02
453           	5.070049e+02
454           	5.070225e+02
455           	5.070398e+02
456           	5.070570e+02
457           	5.070740e+02
458           	5.070907e+02
459           	5.071073e+02
460           	5.071237e+02
461           	5.071399e+02
462           	5.071559e+02
463           	5.071718e+02
464           	5.071874e+02
465           	5.072028e+02
466           	5.072180e+02
467           	5.072330e+02
468           	5.072479e+02
469           	5.072625e+02
470           	5.072769e+02
471           	5.072912e+02
472           	5.073052e+02
473           	5.073191e+02
474           	5.073328e+02
475           	5.073463e+02
476           	5.073596e+02
477           	5.073727e+02
478           	5.073856e+02
479           	5.073983e+02
480           	5.074109e+02
481           	5.074232e+02
482           	5.074354e+02
483           	5.074474e+02
484           	5.074592e+02
485           	5.074709e+02
486           	5.074824e+02
487           	5.074937e+02
488           	5.075049e+02
489           	5.075159e+02
490           	5.075267e+02
491           	5.075374e+02
492           	5.075479e+02
493           	5.075583e+02
494           	5.075685e+02
495           	5.075785e+02
496           	5.075884e+02
497           	5.075982e+02
498           	5.076078e+02
499           	5.076173e+02
500           	5.076266e+02
501           	5.076359e+02
502           	5.076450e+02
503           	5.076540e+02
504           	5.076629e+02
505           	5.076716e+02
506           	5.076803e+02
507           	5.076888e+02
508           	5.076971e+02
509           	5.077054e+02
510           	5.077135e+02
511           	5.077216e+02
512           	5.077295e+02
513           	5.077373e+02
514           	5.077450e+02
515           	5.077526e+02
516           	5.077601e+02
517           	5.077674e+02
518           	5.077747e+02
519           	5.077819e+02
520           	5.077890e+02
521           	5.077960e+02
522           	5.078029e+02
523           	5.078097e+02
524           	5.078164e+02
525           	5.078230e+02
526           	5.078295e+02
527           	5.078360e+02
528           	5.078423e+02
529           	5.078486e+02
530           	5.078548e+02
531           	5.078610e+02
532           	5.078670e+02
533           	5.078730e+02
534           	5.078789e+02
535           	5.078848e+02
536           	5.078905e+02
537           	5.078962e+02
538           	5.079019e+02
539           	5.079074e+02
540           	5.079129e+02
541           	5.079184e+02
542           	5.079237e+02
543           	5.079290e+02
544           	5.079343e+02
545           	5.079395e+02
546           	5.079446e+02
547           	5.079497e+02
548           	5.079548e+02
549           	5.079597e+02
550           	5.079646e+02
551           	5.079695e+02
552           	5.079743e+02
553           	5.079790e+02
554           	5.079837e+02
555           	5.079884e+02
556           	5.079930e+02
557           	5.079976e+02
558           	5.080021e+02
559           	5.080065e+02
560           	5.080110e+02
561           	5.080153e+02
562           	5.080196e+02
563           	5.080239e+02
564           	5.080281e+02
565           	5.080323e+02
566           	5.080365e+02
567           	5.080406e+02
568           	5.080447e+02
569           	5.080487e+02
570           	5.080527e+02
571           	5.080566e+02
572           	5.080605e+02
573           	5.080644e+02
574           	5.080682e+02
575           	5.080720e+02
576           	5.080757e+02
577           	5.080794e+02
578           	5.080830e+02
579           	5.080866e+02
580           	5.080902e+02
581           	5.080937e+02
582           	5.080972e+02
583           	5.081006e+02
584           	5.081041e+02
585           	5.081074e+02
586           	5.081108e+02
587           	5.081140e+02
588           	5.081173e+02
589           	5.081205e+02
590           	5.081237e+02
591           	5.081268e+02
592           	5.081299e+02
593           	5.081329e+02
594           	5.081359e+02
595           	5.081389e+02
596           	5.081418e+02
597           	5.081446e+02
598           	5.081474e+02
599           	5.081502e+02
600           	5.081529e+02
601           	5.081556e+02
602           	5.081582e+02
603           	5.081608e+02
604           	5.081634e+02
605           	5.081659e+02
606           	5.081683e+02
607           	5.081707e+02
608           	5.081730e+02
609           	5.081753e+02
610           	5.081775e+02
611           	5.081797e+02
612           	5.081819e+02
613           	5.081839e+02
614           	5.081860e+02
615           	5.081874e+02
616           	5.081895e+02
617           	5.081914e+02
618           	5.081933e+02
619           	5.081952e+02
620           	5.081969e+02
621           	5.081982e+02
622           	5.081999e+02
623           	5.082016e+02
624           	5.082032e+02
625           	5.082048e+02
626           	5.082063e+02
627           	5.082074e+02
628           	5.082089e+02
629           	5.082104e+02
630           	5.082118e+02
631           	5.082131e+02
632           	5.082145e+02
633           	5.082157e+02
634           	5.082167e+02
635           	5.082179e+02
636           	5.082192e+02
637           	5.082203e+02
638           	5.082215e+02
639           	5.082226e+02
640           	5.082236e+02
641           	5.082247e+02
642           	5.082257e+02
643           	5.082267e+02
644           	5.082274e+02
645           	5.082285e+02
646           	5.082294e+02
647           	5.082304e+02
648           	5.082313e+02
649           	5.082322e+02
650           	5.082331e+02
651           	5.082340e+02
652           	5.082349e+02
653           	5.082358e+02
654           	5.082366e+02
655           	5.082375e+02
656           	5.082383e+02
657           	5.082391e+02
658           	5.082400e+02
659           	5.082408e+02
660           	5.082416e+02
661           	5.082424e+02
662           	5.082433e+02
663           	5.082441e+02
664           	5.082449e+02
665           	5.082458e+02
666           	5.082466e+02
667           	5.082474e+02
668           	5.082483e+02
669           	5.082492e+02
670           	5.082500e+02
671           	5.082509e+02
672           	5.082518e+02
673           	5.082527e+02
674           	5.082536e+02
675           	5.082545e+02
676           	5.082554e+02
677           	5.082563e+02
678           	5.082572e+02
679           	5.082582e+02
680           	5.082591e+02
681           	5.082601e+02
682           	5.082611e+02
683           	5.082621e+02
684           	5.082631e+02
685           	5.082641e+02
686           	5.082651e+02
687           	5.082662e+02
688           	5.082672e+02
689           	5.082683e+02
690           	5.082694e+02
691           	5.082705e+02
692           	5.082716e+02
693           	5.082727e+02
694           	5.082738e+02
695           	5.082749e+02
696           	5.082760e+02
697           	5.082772e+02
698           	5.082783e+02
699           	5.082794e+02
700           	5.082805e+02
701           	5.082816e+02
702           	5.082827e+02
703           	5.082838e+02
704           	5.082849e+02
705           	5.082860e+02
706           	5.082871e+02
707           	5.082882e+02
708           	5.082893e+02
709           	5.082904e+02
